# A 6-vector representing the error twist
# 	3 variables for the angular velocity error (Wx, Wy, Wz)
# 	3 variables for the linear velocity error (Vx, Vy, Vz)
0.5999839719586247,0.017259200408312,-0.005338896325568115,-0.04243994271159575,-0.175997466987538,-0.5688214544490269
0.5892708262040776,0.016951007676676264,-0.005243729190254266,-0.04172310114477273,-0.17285390215710164,-0.5586465873383492
0.5787480846960823,0.016650561958421753,-0.005149595790604635,-0.04101279813229475,-0.169768167824682,-0.5486586191509112
0.5684124064668172,0.01635845501972514,-0.005056250111093403,-0.04031027300169046,-0.16673853446371556,-0.5388523047747165
0.5582604037495338,0.016076470190626958,-0.0049631729332506435,-0.03961586088054008,-0.16376351252607432,-0.5292232004099193
0.548288876756544,0.015805997066074568,-0.00486994932079392,-0.03892966465590765,-0.1608418515509929,-0.5197673523234471
0.5384945950393355,0.015548352475493807,-0.004776206309574127,-0.03825162525976447,-0.15797235693709524,-0.5104811289720692
0.528874417630944,0.015304869379269207,-0.004681668486479828,-0.03758158393912078,-0.1551539924727858,-0.501361124793672
0.519425240854984,0.01507277978342657,-0.004587084699262415,-0.036920335863417114,-0.1523857443471046,-0.49240399485565206
0.5101440006482117,0.014855443764065484,-0.004491576698790397,-0.036267067052723805,-0.14966662774189826,-0.48360664943078674
0.5010277625013319,0.014647136117853364,-0.004396686225668511,-0.03562318955171391,-0.14699576164305456,-0.4749659585499819
0.49207354156470523,0.01444581036790954,-0.004302963219769245,-0.03498912640422535,-0.14437222444098544,-0.4664789389121984
0.4832784486518915,0.014249607546427888,-0.004210796196074587,-0.03436523295253853,-0.14179515931146733,-0.45814268456101914
0.4746396189788484,0.014031199139246582,-0.00412686922837777,-0.033757594562635086,-0.13926379035991382,-0.44995399429267247
0.46615439306036616,0.013838297488739083,-0.004039451147781793,-0.03315529922607621,-0.1367771914897216,-0.44191098508583176
0.45782011839378334,0.013703536480841627,-0.003940903065217287,-0.03255117995461238,-0.13433447116367475,-0.43401158708652154
0.44963385202281264,0.013534484724736872,-0.003853172816078162,-0.03196549617583399,-0.1319350540295845,-0.42625165730337533
0.441593085159365,0.01337425939116282,-0.0037659202558585196,-0.03138855871805214,-0.12957807329302576,-0.4186294535925077
0.43369530910677073,0.01324956861028679,-0.0036732826900765336,-0.030814844245673365,-0.12726273378288694,-0.41114293514019346
0.42593784610002844,0.013115119421863526,-0.0035854078579778846,-0.030253681245535267,-0.12498838315520111,-0.40378897224338123
0.4183183729808143,0.01302201168786092,-0.0034911809361704085,-0.02969463142729191,-0.12275421627853436,-0.39656604231406933
0.41083425285073616,0.012913372059912847,-0.003402818746557714,-0.029148947247881328,-0.12055966783797178,-0.38947098041437594
0.4034832519592475,0.012852410585302718,-0.0033070872625058003,-0.028604217059436964,-0.1184038965146649,-0.3825024904612493
0.39626291239177974,0.012808223556771817,-0.0032105300682819396,-0.028066453160759296,-0.11628628086826762,-0.37565786175928995
0.38917077102917536,0.012700379720116317,-0.0031292683972377004,-0.027550472936239138,-0.11420629315126554,-0.3689338296711213
0.38220485934121234,0.012689547460188674,-0.0030312820695100554,-0.027026429919871413,-0.11216301180739721,-0.36233051642049374
0.37536269892907576,0.012648485940985074,-0.0029416498996358417,-0.026517530192965856,-0.11015601698985553,-0.355844070533992
0.36864205242734877,0.012571891092330749,-0.0028611461533509294,-0.026024356633341773,-0.10818465962599486,-0.3494723660287895
0.3620409678368331,0.012560308233497462,-0.002770802729307113,-0.025529191506328347,-0.1062481578083693,-0.34321473250643464
0.3555572015789083,0.01256500836678026,-0.0026799325790179624,-0.025040585992758522,-0.10434599991747491,-0.3370685081312127
0.34918857918417046,0.012525238654711569,-0.002599477193970022,-0.024568557342953136,-0.10247763426595594,-0.33103097124317515
0.34293306567370985,0.012432302918463872,-0.0025304978563043565,-0.024113996499365707,-0.10064249666036605,-0.3251001126270169
0.3367888454162091,0.012417133703929498,-0.0024500886224418923,-0.02365550315387213,-0.09883983151636136,-0.31927569747839013
0.3307537372749792,0.012338457633141366,-0.0023823952732150715,-0.023215433986524786,-0.09706920698558713,-0.3135541100503344
0.324826017280775,0.012347541337316645,-0.0023021639762872553,-0.02277015037573929,-0.09532991522335275,-0.3079353379955131
0.3190035224422403,0.012284934713121143,-0.0022355627402025056,-0.02234391964806927,-0.09362156983361317,-0.30241569894100157
0.31328474744740814,0.012400496861714117,-0.0021423516938394818,-0.02189916547540522,-0.09194334942131707,-0.29699630600257787
0.30766751833882605,0.012443695421207811,-0.0020628722267802967,-0.021473355923869467,-0.0902950184741329,-0.29167252066575994
0.30215014301916154,0.012497585000682251,-0.001983768090204803,-0.021053931638658856,-0.08867593908621613,-0.28644357987241426
0.2967307024419309,0.01246623031731763,-0.0019195971342546255,-0.020654369489556363,-0.08708567392205802,-0.2813067523077262
0.2914074551710581,0.012346913357193937,-0.0018704446076412112,-0.020274642295255267,-0.08552372261484067,-0.2762604147273988
0.2861787001757934,0.012125718823904225,-0.001837470174310149,-0.01991578226232375,-0.08398959565329048,-0.27130279580610617
0.28104301203056536,0.012019437308161508,-0.001789254389063893,-0.019548349420194316,-0.08248258839477504,-0.2664345942987127
0.2759984637188782,0.011804035045420703,-0.001757759946102941,-0.019202073677319156,-0.08100242508939401,-0.26165190964659657
0.2710438418694246,0.011830674546065716,-0.0016939774738196091,-0.018831113507309503,-0.07954832009709115,-0.25695671353215205
0.2661770053837758,0.011618604185131174,-0.0016642049046038888,-0.01849728329266103,-0.0781202244952293,-0.2523427764447572
0.26139679729230986,0.011536911057002733,-0.0016180629759128889,-0.018153441154294417,-0.07671738206626294,-0.24781217055757052
0.2567014281204881,0.011330030449755705,-0.0015896597908623754,-0.0178313717286443,-0.07533953498450965,-0.24336098195244352
0.25208951736451296,0.011126861332832978,-0.0015617857277337222,-0.017514886683742684,-0.07398612589302164,-0.23898903780244052
0.24755957533794937,0.010927300503433088,-0.0015344054570795777,-0.017203893193459864,-0.072656713241183,-0.23469491078385324
0.24311013399934364,0.010731260962151407,-0.0015075138172404808,-0.016898296123325413,-0.07135090201520072,-0.23047721032356322
0.23873979616119656,0.010538734495276607,-0.0014811037865414543,-0.016598004706833692,-0.07006827536453067,-0.2263345568861439
0.23444713465749667,0.010349601998620788,-0.0014551699737576198,-0.01630292975428043,-0.06880840922513323,-0.22226560604991216
0.23023074277098737,0.010163817518160936,-0.0014296796737453409,-0.016012980467033856,-0.06757088663446098,-0.218269056772323
0.22608931581564423,0.00998135593320815,-0.0014046694918821959,-0.015728062828636417,-0.06635532562694817,-0.2143436263305579
0.2220214982327389,0.009802130322719406,-0.00138010576217889,-0.015448096216880324,-0.06516133412556058,-0.21048801580705048
0.21802597656603395,0.009626099727449927,-0.0013559899702286899,-0.015172993697569812,-0.06398852980294595,-0.20670097406746527
0.21410148836835674,0.009453233071566603,-0.0013323123402530783,-0.014902668374773236,-0.06283653770266068,-0.20298126744524944
0.210246730596551,0.009283391170447715,-0.0013090572283692105,-0.014637040444714802,-0.06170498396114732,-0.19932770678963418
0.20646047248225322,0.009116572387160425,-0.0012862330934599203,-0.014376023037916687,-0.06059351373561642,-0.19573912290832354
0.20274151379783958,0.008952718904295583,-0.001263806584496369,-0.014119533889782168,-0.0595017430429296,-0.19221433835449403
0.1990886649147779,0.008791751289018412,-0.0012417714385086795,-0.013867495282949028,-0.058429354044241294,-0.18875219786799252
0.19550072851967107,0.008633658491967303,-0.001220144302100628,-0.013619825459500702,-0.057375993309355944,-0.18535157664658605
0.19197656677880331,0.008478384620832632,-0.001198895709333168,-0.013376441409076713,-0.05634132950553311,-0.18201140332230364
0.18851504406801994,0.008325870203113626,-0.0011780356185657052,-0.013137271291462346,-0.0553250301690771,-0.17873055766083853
0.1851150652249478,0.008176038842787454,-0.0011575592974157332,-0.012902234944547796,-0.054326757796340185,-0.17550801432512783
0.18177550634934306,0.008028876955509606,-0.0011374470956507516,-0.012671256819578902,-0.053346203227133675,-0.1723426921102857
0.17849530427857996,0.007884332824204632,-0.0011176736034095433,-0.01244426571480771,-0.0523830371033433,-0.16923358317189643
0.17527339804132017,0.00774238133957216,-0.001098263141742775,-0.012221184088676965,-0.05143697669585921,-0.16617968705372013
0.1721087566714134,0.007602952381605419,-0.0010791941082867694,-0.012001946760714024,-0.05050769635920942,-0.16318001283944222
0.1690003503106711,0.007465998042755317,-0.0010604558143750423,-0.011786489422237987,-0.04959491449432714,-0.16023355721466936
0.16594722079429552,0.007331447550551975,-0.0010420687565593863,-0.01157474903723782,-0.04869833262717973,-0.15733942683322197
0.1629483708531992,0.007199309301860055,-0.0010239939947980672,-0.011366660844112237,-0.04781768300551103,-0.15449667085005858
0.1600028242132625,0.00706951843627702,-0.0010062429202833112,-0.011162169070137864,-0.04695267021558981,-0.15170437307562623
0.15710960575803312,0.006942036427967813,-0.0009887862994495348,-0.01096121981524816,-0.04610302151060204,-0.14896164380117352
0.15426782147522466,0.0068168096716787864,-0.0009716724317231757,-0.010763766412443924,-0.04526844726417355,-0.14626760309967518
0.15147655845357438,0.006693815903196786,-0.0009548387669386932,-0.010569752743928594,-0.044448701156644614,-0.14362141581268895
0.1487349050600105,0.006572997120442489,-0.0009383279667041048,-0.010379133184803276,-0.04364350455018676,-0.1410222242974801
0.14604197971842647,0.006454346457186559,-0.0009221050401479431,-0.010191862437338916,-0.042852622694134,-0.13846918765008234
0.14339691300522006,0.006337783633775133,-0.0009061516975672232,-0.010007895577217155,-0.04207578772920868,-0.13596151254794206
0.14079886561200305,0.006223283225376929,-0.000890483781750485,-0.009827187667696398,-0.041312769018575585,-0.13349838420003513
0.13824702002338202,0.006110810130234982,-0.000875101336969046,-0.009649692445279922,-0.04056332709551756,-0.13107904076584148
0.13574050976577323,0.006000355920620627,-0.0008599871972941324,-0.009475365532096238,-0.03982720516504505,-0.1287026902290534
0.13327855819507575,0.005891874451883221,-0.0008451283615908403,-0.009304163979593844,-0.03910413914249394,-0.1263685829135587
0.13086035008796446,0.005785289426341084,-0.0008305423302534608,-0.00913604748129184,-0.038393932213996784,-0.12407598387024521
0.12848515196750337,0.0056806309586974755,-0.0008162033428448867,-0.008970968780229736,-0.0376963501273253,-0.12182414691725275
0.1261521597610567,0.005577831019246263,-0.0008021283489902816,-0.00880889015364686,-0.03701117415466638,-0.11961234666376241
0.12386065167316866,0.00547687412922027,-0.0007882930736479045,-0.00864976352545369,-0.03633818142461827,-0.11743990059181171
0.1216098546445703,0.005377681145833391,-0.0007746942583614575,-0.00849355857252267,-0.03567714519472244,-0.11530607060000343
0.11939907854198337,0.005280251789665028,-0.0007613286916215926,-0.008340219755067014,-0.03502785512032713,-0.11321021746806782
0.11722760310159457,0.005184550742192685,-0.0007481881554612785,-0.008189702605700113,-0.03439009076324023,-0.11115163359606604
0.11509473821314405,0.005090525856421057,-0.0007352876024174643,-0.00804196075318746,-0.03376365612324326,-0.10912968557608849
0.11299977537933598,0.004998181521236796,-0.0007226057215000244,-0.007896943517457244,-0.03314836579705503,-0.10714368295624108
0.11094203671349634,0.004907478894681196,-0.0007101426550757306,-0.00775459768341784,-0.03254398786951293,-0.10519301650120576
0.10892089394246901,0.004818398929600622,-0.000697901491032708,-0.007614873086382931,-0.0319503843644665,-0.10327702835449899
0.10693567053486122,0.004730900042400474,-0.0006858689128823185,-0.007477716487637693,-0.031367308470548166,-0.10139511869090066
0.10498571969553372,0.0046449588181324145,-0.000674045608316515,-0.007343076514093918,-0.03079459884725464,-0.09954667408845154
0.10307044479593616,0.00456054231593807,-0.0006624324652743483,-0.007210907311214987,-0.030232052094056255,-0.09773107839887425
0.10118922079795666,0.004477630325461743,-0.0006510164348879667,-0.007081154905263644,-0.029679495875181976,-0.09594776296477839
0.09934143240848516,0.004396198584136054,-0.0006397995017743698,-0.006953766126213326,-0.029136769233831655,-0.09419617061716067
0.09752649453036905,0.004316202204591725,-0.000628776642126065,-0.006828701610408252,-0.02860368676290802,-0.09247571896281757
0.0957438125145362,0.004237612578609219,-0.000617933435709381,-0.006705918599846226,-0.02808008719861569,-0.09078584165505821
0.09399283293595577,0.004160440668086439,-0.0006072824746091824,-0.0065853647892166935,-0.02756579037265191,-0.08912601671585338
0.09227297160029124,0.00408463453316562,-0.0005968156996503093,-0.006467003148934578,-0.027060654341716124,-0.08749571010422989
0.09058366469211188,0.004010150440475181,-0.0005865298472078057,-0.006350797505917208,-0.02656447412184498,-0.08589439284449238
0.08892440905904428,0.003937010647676888,-0.0005764164210507451,-0.006236706534337407,-0.026077117160442115,-0.08432153884378166
0.08729460242077547,0.00386517873760164,-0.000566479759690551,-0.006124684021425886,-0.025598415180405835,-0.08277669170108903
0.08569381007477686,0.0037946214441221403,-0.0005566943234523943,-0.00601470745713153,-0.0251282306878388,-0.08125931247915119
0.08412143096528243,0.0037253239090169186,-0.0005470950521709728,-0.005906739686317177,-0.02466640593406441,-0.07976894053102393
0.08257706973954651,0.0036572487861514765,-0.0005376567758069684,-0.005800749250746938,-0.024212806632076814,-0.07830511342727398
0.08106012617400857,0.0035903975994269156,-0.0005283759963286177,-0.005696705224413983,-0.023767241412565407,-0.07686735809117327
0.07957016638497597,0.003524747772956377,-0.0005192460613326112,-0.005594588334456308,-0.02332962605145818,-0.07545519621313074
0.07810666747959558,0.0034602126973349123,-0.0005102841121723623,-0.005494380053554004,-0.022899792543115704,-0.07406821316488843
0.07666920718987329,0.0033968503091339874,-0.0005014747355608838,-0.00539606261491073,-0.022477606469056326,-0.07270591236035698
0.07525728257127591,0.003334602832852452,-0.0004928126035126112,-0.005299617108613217,-0.022062922197111146,-0.0713679214860723
0.07387046100507595,0.003273457514830337,-0.0004843032495373571,-0.005205040653188376,-0.021655628900444226,-0.07005380744904147
0.07250829946402335,0.0032134180100282256,-0.0004759220321120465,-0.005112342146596751,-0.021255573700030683,-0.06876312272309026
0.07117034487065489,0.0031544366973307128,-0.0004676871338714359,-0.0050215388436401455,-0.02086263072793348,-0.06749550054744571
0.06985619318914578,0.003096497720865925,-0.0004595865280473735,-0.004932676158742759,-0.020476680601331045,-0.06625053308062354
0.06856540191756412,0.0030395951208477072,-0.00045161951387416105,-0.004845833191831084,-0.02009758963673282,-0.06502783184322154
0.06729753775851254,0.002983703103725553,-0.0004438023714203825,-0.004761159124640553,-0.01972524366518582,-0.06382702293632579
0.06605219663572505,0.0029287987204074293,-0.0004361061961518863,-0.004678928522856671,-0.019359509851066787,-0.0626477514861317
0.06482902294908781,0.0028748529727473764,-0.00042854016156363317,-0.004599692200591882,-0.019000293430941475,-0.061489732870146016
0.06362759394977946,0.0028218920803662726,-0.0004211037153532172,-0.0045247766740636975,-0.0186474409131163,-0.06035271947622738
0.062447485763845366,0.0027698702170215156,-0.0004138055679308506,-0.004458516835043067,-0.018300771708214182,-0.0592368826548225
0.06128839074868619,0.0027187622066506246,-0.0004066159238571589,-0.0044111742237260155,-0.017960001741688672,-0.058142814949895434
0.0601499051245454,0.0026685809707595316,-0.00039954264665082806,-0.004329909767260762,-0.01762538404293694,-0.05706251307805855
0.05903163407187551,0.002619297001250162,-0.0003925914839438113,-0.004248753814722836,-0.017296741336869922,-0.056001212791868135
0.05793325965695355,0.0025708583966328777,-0.0003857587851752259,-0.004168948669533455,-0.016973974954810504,-0.05495876547504807
0.05685440616405764,0.0025232595854825825,-0.00037902850136670423,-0.004090480346552107,-0.01665698689006275,-0.05393483844155348
0.05579473749363632,0.0024765419048796084,-0.0003724268579531142,-0.004013329261806663,-0.01634569395104172,-0.05292911632005987
0.05475388642995885,0.0024306125022842597,-0.0003659279004789921,-0.00393751939573818,-0.016039948573830985,-0.05194125613381803
0.053731564682042154,0.002385555117438331,-0.0003595271530182799,-0.003863031866302309,-0.015739680703147744,-0.050970956747866225
0.05272741446423409,0.0023412886479587283,-0.0003532390857394812,-0.003789890596712832,-0.015444802491928117,-0.050017895894175914
0.0517411263543092,0.002297784739106532,-0.0003470568615846634,-0.00371808786368965,-0.015155179112762023,-0.04908181392630042
0.050772353820273244,0.0022550713653397398,-0.0003409888196705195,-0.0036476242730050547,-0.014870718882029798,-0.0481623739774232
0.049820796198700584,0.002213114795009455,-0.00033500783229685943,-0.0035784913202835415,-0.01459135279039575,-0.047259297418124104
0.04888614425882539,0.0021719109243351735,-0.0003291339525412924,-0.003510669277521553,-0.014316966210152693,-0.04637230102816481
0.04796812606417521,0.002131457522457129,-0.00032334561570124433,-0.003444140424690243,-0.014047487733076989,-0.04550108577683682
0.047066459393495914,0.002091710040700643,-0.0003176551141822454,-0.0033788828163253616,-0.0137828236234954,-0.04464538043244889
0.04618077792779753,0.0020526874645850294,-0.0003120786639402038,-0.003314862138566256,-0.013522859010936012,-0.0438049118832103
0.04531084632198449,0.002014352055538824,-0.00030658684998913606,-0.003252065830559858,-0.013267531890786576,-0.042979379419231814
0.04445639146321206,0.001976671441703178,-0.0003011760730034249,-0.003190457010907491,-0.01301674672990278,-0.04216854871325938
0.043617131446240395,0.001939689623035622,-0.00029583881024555173,-0.003129998741723655,-0.012770426201989813,-0.04137214933403562
0.04279277410573056,0.0019033495562785162,-0.00029061342819355034,-0.00307068568935392,-0.012528507187697555,-0.04058989234829291
0.041983092616708816,0.001867656062409319,-0.0002854649538148156,-0.003012472363872098,-0.012290896856533805,-0.03982156475966105
0.041187794645780096,0.0018325861154451228,-0.0002804164376529371,-0.0029553404398701623,-0.01205751441288173,-0.03906690540147355
0.04040662505501211,0.0017981328997587255,-0.0002754487947793978,-0.002899266874887018,-0.011828282068877646,-0.03832566341157586
0.0396393661876863,0.0017643085605497835,-0.0002705511497562907,-0.0028442165185914472,-0.011603149223049882,-0.03759761506940082
0.038885771504636256,0.0017311005836036597,-0.00026573453621890093,-0.0027901715391379775,-0.01138202624953888,-0.036882514896652924
0.03814552947803099,0.001698484933680685,-0.0002610093853884266,-0.002737115687722217,-0.011164821614196779,-0.03618012438684905
0.03741843946686922,0.0016664196483130557,-0.0002563334538722426,-0.0026850396655063334,-0.01095147941791937,-0.03549021038950925
0.036704301326083495,0.0016349278954727981,-0.0002517268054330894,-0.0026339090627380763,-0.010741944083852166,-0.034812561922077
0.03600285899635284,0.0016040179433487061,-0.0002472349145215409,-0.0025837051768990205,-0.010536134427848717,-0.03414695141894788
0.03531390157669693,0.0015736428174307517,-0.00024279543476769184,-0.002534406469145416,-0.010334006035496992,-0.033493190833777914
