# A 6-vector representing the error twist
# 	3 variables for the angular velocity error (Wx, Wy, Wz)
# 	3 variables for the linear velocity error (Vx, Vy, Vz)
1.5707511325235617,0.013977169127428461,-0.013977169127428472,-0.042439661760496496,-0.46074392257025504,-0.4605818390356332
1.5427042655647876,0.013727571068822827,-0.013728130892200534,-0.041708325265003635,-0.452511538818598,-0.45233800774966565
1.5151536788036957,0.013484875473181293,-0.01348256951221851,-0.04098615428521206,-0.444428162491833,-0.44424418388441633
1.4880898202143886,0.013249786180059153,-0.01324013512230783,-0.04027355020023582,-0.4364899845247411,-0.43629713754281463
1.4615022604620505,0.013024229899391176,-0.013000106322083992,-0.03957038669960194,-0.4286933145430861,-0.4284941484227913
1.4353809872748127,0.012809758299575704,-0.012762026024117048,-0.03887647507102955,-0.42103482760432415,-0.42083253371196394
1.4097161980452164,0.012607879866238384,-0.012525480222292048,-0.03819156248262663,-0.4135113689385953,-0.4133097743740501
1.3845016016509901,0.012416362078768535,-0.01229133177634086,-0.03751621346134798,-0.40612088135991264,-0.40592284537818085
1.3597297467598415,0.012234375208363832,-0.012059950668895114,-0.036850601686735415,-0.3988610380553635,-0.39866901422990647
1.335389327812765,0.012065658508249642,-0.011830179913488385,-0.03619381224797101,-0.391728519906004,-0.3915463934644026
1.3114916755711696,0.011888439142707492,-0.011608433678905159,-0.035550624830037486,-0.3847256056461433,-0.3845491620780751
1.2879940063898794,0.011742454476521575,-0.011383628080398766,-0.03491219551853731,-0.37784163289163547,-0.3776810039826699
1.2649231185711012,0.01158873018180521,-0.011166294802056527,-0.03428689263981437,-0.37108241727690733,-0.37093373767957644
1.2422648505885066,0.011434800987564716,-0.010954298488955145,-0.033672922662163346,-0.3644441375827854,-0.36430625959706875
1.2199870938756117,0.01130882748890758,-0.01074096319756354,-0.03306430060513888,-0.3579191405672432,-0.35780042934176975
1.198097885311593,0.01119345612907279,-0.01053027332253567,-0.03246447672447737,-0.35150866644067813,-0.3514115862823148
1.1765850830445703,0.01109444916076037,-0.010321519877624176,-0.0318723096819215,-0.345209752659154,-0.34513836421154065
1.1554629986035556,0.01098770571575078,-0.010119584057099862,-0.03129243593223198,-0.33902474241868785,-0.33897534857861195
1.1346857238662265,0.010916256621182523,-0.009915789900871216,-0.030716214494164545,-0.33294359168994225,-0.3329265855409572
1.1142678843021137,0.010858456830467041,-0.009714695137351247,-0.03014784357468126,-0.32696886118204205,-0.32698678762308553
1.094171453236529,0.010848617641062895,-0.009510919113508423,-0.029580868584667408,-0.3210927007021132,-0.32115863382355464
1.0745049925208336,0.010756367817834156,-0.009325710594436784,-0.02903946718822473,-0.3153351760750156,-0.3154230872751176
1.055148781809584,0.010710234951112112,-0.009138212045821084,-0.028499547747186625,-0.30967283397363726,-0.3097951414705468
1.0361604875656378,0.010637760748599994,-0.00895922139956639,-0.02797421690126489,-0.30411575563232734,-0.3042636320550971
1.0175016008961428,0.010575648665156118,-0.008783371592047812,-0.027456669315009403,-0.298656193520061,-0.29883148033773554
0.9991240680427104,0.010571328813492509,-0.008605160589824835,-0.026938591952474087,-0.29328519063288255,-0.2935027220006958
0.9811031245052176,0.01053311192326182,-0.008435797760242794,-0.02643584885828353,-0.2880151961820384,-0.28826427337116217
0.9633940491453999,0.010504970301315027,-0.008269769812327582,-0.02594060416428319,-0.2828377206885707,-0.28311990743475646
0.9460424219088488,0.01042910781352377,-0.00811238000855358,-0.025462277089954043,-0.27775942506948914,-0.27806115244047197
0.9289907784030839,0.010363961716436998,-0.007958233350877792,-0.02499107550146529,-0.2727702861260549,-0.273093273457627
0.9122361811248947,0.01030661778953873,-0.007807287260618644,-0.024527271162974693,-0.2678690347038007,-0.268214362442371
0.8958307825957776,0.010192383783232789,-0.0076643145196887376,-0.024081065262884126,-0.26306303271893094,-0.263415444580774
0.8797137659621517,0.010083639042807254,-0.007524215585325603,-0.023642233525455615,-0.25834201136810026,-0.2587021976673213
0.8638100469181801,0.010058836977120294,-0.007383289569437945,-0.02319874236044302,-0.2536943059596245,-0.2540817007946497
0.848327929902938,0.009878567777858316,-0.007252399890860978,-0.022786664230451163,-0.2491492601066993,-0.24952636505984327
0.8330449563889235,0.009786656349499658,-0.0071209736388650625,-0.022369171288764512,-0.24467421099208897,-0.2450611725240699
0.8181096563923879,0.00961119021370171,-0.006994794778743768,-0.021971522208806563,-0.2402892103644821,-0.24066638410940522
0.8034398156329811,0.009438836188672578,-0.006870927656009265,-0.02158078993451895,-0.23598201406148783,-0.23634978175316412
0.7890306830174638,0.009269547734857117,-0.006749269651049688,-0.021196855072183208,-0.23175121557547942,-0.23211001065302347
0.7748776724833297,0.009103263248053889,-0.006629797211021634,-0.02081959879530771,-0.2275955112650071,-0.22794570479831086
0.7609762016477644,0.008939887164438566,-0.00651246054706828,-0.02044891439500172,-0.2235135298678208,-0.22385551068710793
0.7473218076133782,0.008779403118331508,-0.006397224488456673,-0.02008468347070077,-0.21950399493785738,-0.21983812817564366
0.7339101185000887,0.008621754452383975,-0.006284064718228368,-0.019726797262328385,-0.21556559519710095,-0.21589224955748856
0.7207368057199242,0.008466920221702782,-0.006172933023049604,-0.01937514088435141,-0.21169708341071553,-0.2120165910440982
0.7077976535462841,0.008314783193302299,-0.0060638094983819345,-0.01902961645255633,-0.20789725006040333,-0.2082099056985095
0.6950884515435126,0.008165362808318139,-0.005956653555610464,-0.018690112408030694,-0.2041648288522659,-0.20447096001911666
0.6826051638710774,0.008018604308831069,-0.005851409572716139,-0.01835652635000414,-0.20049866642993458,-0.20079854018647214
0.6703437256596971,0.007874463185970475,-0.005748077783207896,-0.018028756316854275,-0.196897552727993,-0.19719146510281121
0.6583002110593213,0.007732838543275578,-0.005646585909167837,-0.017706707976381048,-0.19336033544813455,-0.1936485840043417
0.6464707664277741,0.00759369621168329,-0.0055468923937493815,-0.017390281656319746,-0.18988591550399284,-0.1901687583977623
0.6348515704556957,0.007457050462634463,-0.005448985986891113,-0.017079376731881653,-0.18647316636103883,-0.18675081733356913
0.6234388981465516,0.007322821205289358,-0.005352841536338502,-0.016773901425436017,-0.18312096051921925,-0.18339370042617492
0.6122290349082751,0.0071909409959740375,-0.005258410790540837,-0.01647376677553059,-0.17982824395255206,-0.18009629756688345
0.6012184540619082,0.007061398935100634,-0.005165668917104386,-0.016178881155810267,-0.17659398772397816,-0.1768575683611273
0.590403583577928,0.006934149632173301,-0.005074575236594161,-0.01588915422520127,-0.17341713740202724,-0.17367643722357365
0.579780907127438,0.006809171766272948,-0.0049851186725804655,-0.01560449699541124,-0.1702966532129677,-0.17055188614930533
0.5693470492679651,0.0066864019475302875,-0.004897238427033653,-0.01532482426641104,-0.16723156732002828,-0.16748292586234498
0.5590986353750276,0.006565816780621603,-0.004810939821818989,-0.015050053194498349,-0.16422090458843427,-0.16446852578107996
0.5490324117766151,0.006447381618398393,-0.004726184088709774,-0.014780099924034949,-0.1612636847339252,-0.1615077265742809
0.5391450737445486,0.006330979878796338,-0.0046429065938640955,-0.014514891975046244,-0.15835895886972698,-0.158599619562417
0.5294334768760686,0.006216686250378045,-0.004561124805808767,-0.014254338779976674,-0.15550578814812305,-0.1557431961189568
0.5198944861631525,0.00610439277172067,-0.004480791551358013,-0.01399837175290547,-0.152703274119577,-0.15293755640155032
0.5105250474587347,0.005994097862244918,-0.0044018855720632565,-0.013746906940727263,-0.14995051809579585,-0.1501818153010061
0.5013221592157049,0.0058857479027544166,-0.004324377123104613,-0.01349987428614149,-0.14724664862834635,-0.14747505198799882
0.4922828365238485,0.005779345285167076,-0.0042482402367128936,-0.013257193798687405,-0.1445907840987222,-0.14481642760248806
0.48340417043744727,0.005674833594774382,-0.004173464938325307,-0.013018795170980315,-0.14198206478624228,-0.14220505822194288
0.4746833406191091,0.00557215882301011,-0.004100002323984093,-0.012784612310499448,-0.13941969822051775,-0.1396401342915519
0.46611750731936075,0.00547128351195193,-0.00402782539217099,-0.012554576489459244,-0.13690280858760961,-0.13712080003008778
0.45770394173671647,0.005372254148907151,-0.0039569333312182075,-0.012328607835105653,-0.13443062376677112,-0.1346462420457412
0.44943993928178566,0.005274927521025854,-0.003887295158362438,-0.012106653740985305,-0.13200234703870745,-0.13221569261868546
0.44132280097601034,0.005179345972487042,-0.0038188939017763965,-0.01188863907853217,-0.1296172012125994,-0.12982832014973095
0.4333499308971131,0.00508546221007206,-0.0037516874159921904,-0.01167450072951187,-0.12727440722228248,-0.127483380979133
0.425518765671658,0.004993263140567077,-0.003685657444382345,-0.01146417014376472,-0.12497324608450794,-0.1251801445291679
0.4178268002827384,0.004902676374058966,-0.0036207785416690614,-0.011257594381991734,-0.12271296375096655,-0.12291783070720246
0.41027157244698337,0.004813709688136205,-0.003557056686506635,-0.0110547008949432,-0.12049282249230336,-0.12069576654070847
0.4028506471308381,0.004726287409572465,-0.0034944297092132726,-0.01085543821989397,-0.11831212222061452,-0.11851318549242068
0.395561605498988,0.004640444524636414,-0.0034329147520885403,-0.010659737851333577,-0.11617017985817835,-0.11636941908059328
0.3884021317883371,0.004556130256692518,-0.0033724640727050984,-0.010467543618725535,-0.11406629512886196,-0.11426374555168532
0.381369921099899,0.004473338797114882,-0.0033130768826303597,-0.010278795932041717,-0.1119998006472415,-0.11219550509729741
0.3744626971296858,0.0043920040880467085,-0.0032547182034140137,-0.010093438564118387,-0.10997001584988789,-0.11016404979243215
0.36767826613138227,0.004312121628651252,-0.0031973804166196187,-0.009911414815131967,-0.10797629310926248,-0.10816871026696612
0.3610144038302474,0.004233674440407494,-0.0031410597783428436,-0.009732668042606876,-0.10601801975448981,-0.10620885345827819
0.3544689947701456,0.0041566148972781766,-0.0030856978391879037,-0.009557146991662624,-0.10409454146189566,-0.1042838252988082
0.34803992315827564,0.004080929997761029,-0.0030313293301166785,-0.00938479537644452,-0.10220524696417913,-0.10239303153020932
0.34172515849398055,0.004006576513679887,-0.002977883219116479,-0.009215565437656677,-0.10034955191200849,-0.10053584554706088
0.3355226079721885,0.003933558542757667,-0.0029253673914649385,-0.009049397179759612,-0.0985268314262332,-0.09871169410774638
0.32943033478986516,0.0038618612634403883,-0.002873744219373177,-0.008886239157886932,-0.09673651656927607,-0.09691998231576177
0.32344634343176876,0.0037914224673182583,-0.0028230176833963405,-0.008726046176142118,-0.09497802576250296,-0.09516014687024275
0.3175687109037631,0.003722247480881518,-0.0027731867527972737,-0.00856876672163475,-0.09325081962510297,-0.09343160174762363
0.3117955546420586,0.003654284382225959,-0.0027242332143456688,-0.008414356135775722,-0.09155433782850861,-0.09173380471469006
0.306125015895233,0.003587573574683923,-0.002676108216374737,-0.008262757762982253,-0.08988801564665011,-0.09006619933542
0.3005552695653828,0.0035220473298365664,-0.002628818331928278,-0.008113931234422512,-0.08825132240780544,-0.08842826824761744
0.2950845427787404,0.003457671965745429,-0.0025823385064588796,-0.00796783289790459,-0.08664373349579778,-0.08681948507523636
0.2897110464735323,0.0033944481296678724,-0.002536644694984963,-0.007824415929323945,-0.08506476767517618,-0.08523932595700515
0.2844330840198851,0.003332364182037677,-0.002491753988654517,-0.007683637954550105,-0.08351386304197975,-0.08368728060581324
0.2792489061396054,0.0032713678191297678,-0.0024476193817505078,-0.00754545967382435,-0.08199055262237019,-0.08216287166785054
0.2741568907819451,0.00321149530944429,-0.002404249851636867,-0.007409834419691618,-0.08049434314395593,-0.08066559247716694
0.26915535783834305,0.003152716137089478,-0.00236162766505253,-0.007276726465460137,-0.0790247409113463,-0.07919495913076008
0.2642427634559254,0.003094943545961517,-0.002319730396337896,-0.007146107252744853,-0.0775812955263212,-0.07775052992241727
0.2594174675813557,0.003038208125493639,-0.0022785497933392354,-0.007017939522234842,-0.07616353272344185,-0.07633182281948576
0.25467797877966586,0.0029825074783811083,-0.002238056017227742,-0.006892189520332266,-0.07477101813512826,-0.0749383599021979
0.25002272874810366,0.0029277976003412986,-0.002198272156209093,-0.006768827470957589,-0.07340329806825348,-0.07356975133583929
0.24545022413682838,0.002874059064956117,-0.002159161855965848,-0.006647837176671472,-0.07205991238244364,-0.07222551675168026
0.24095896710398623,0.0028213090786018257,-0.0021207135931915,-0.0065291942369385516,-0.07074042354314732,-0.07090522195064425
0.2365475519018387,0.0027694797769616877,-0.002082927205287395,-0.006412897197188718,-0.06944444059648118,-0.06960843880697896
0.23221453001856582,0.002718582036970105,-0.002045794068205607,-0.006298927158380203,-0.06817152664480912,-0.0683348017777083
0.2279585531767346,0.002668576248080767,-0.002009267297531854,-0.006187308302844507,-0.06692126397065809,-0.06708384805906786
0.22377823435338512,0.0026194881457070364,-0.0019733697354084494,-0.006078051561086621,-0.0656932774007457,-0.06585520423020377
0.21967220746581095,0.00257127461992885,-0.0019380599462444042,-0.005971217750531571,-0.06448717167519669,-0.06464844077953752
0.21563914348143307,0.00252391424296175,-0.001903359591992649,-0.005866888205313825,-0.0633025413306805,-0.0634632053699341
0.21167780682005466,0.0024774247260474494,-0.0018692469736957752,-0.005765211544080379,-0.0621390242138988,-0.06229908751932774
0.20778686760019363,0.002431776093058,-0.0018356958769787364,-0.005666446523268626,-0.0609962339491739,-0.061155709577534335
0.20396508880230227,0.0023869457253623168,-0.0018027436744301407,-0.005571056931917673,-0.0598738235443782,-0.060032690188023645
0.20021121858600577,0.002342908882663713,-0.0017703427016149069,-0.005479947030379533,-0.058771411203124936,-0.05892966008215305
0.19652406865422822,0.002299666119008565,-0.0017384810553692676,-0.005395116286461,-0.05768872704000963,-0.05784622535684499
0.19290248055966597,0.002257198758565491,-0.001707152334459859,-0.005321652039458782,-0.05662542537855264,-0.05678188396172637
0.1893452562193241,0.0022154813006065545,-0.0016763697524268821,-0.005257170297245405,-0.055580502728841005,-0.055735914180773935
0.18585124759043317,0.0021745062556922956,-0.0016461052850885326,-0.005163481640202132,-0.05455218105709786,-0.054707626177768934
0.18241933984582917,0.0021342925643346887,-0.0016163289123154367,-0.00506791616494331,-0.05354195250467321,-0.05369751663373661
0.1790484212203302,0.002094796181226712,-0.0015870695079172315,-0.0049739619716038805,-0.0525496763789161,-0.05270538264870039
0.17573744288561083,0.0020560103477426472,-0.0015582853180146356,-0.004881612325257762,-0.051575038231141006,-0.05173085281731808
0.17248530332537737,0.002017881957913155,-0.001529994125757981,-0.004790833633002356,-0.05061774942700764,-0.050773661132029274
0.16929097412347438,0.0019804369681709613,-0.001502184415407594,-0.004701591992872344,-0.04967751695786507,-0.049833484342901226
0.16615343479719838,0.0019436851889268068,-0.0014748138312939106,-0.004613862783766333,-0.048754046257257634,-0.04890999394933227
0.16307163573491387,0.001907598718779186,-0.0014479308337791424,-0.004527618404866422,-0.04784703083246066,-0.048002918454292005
0.16004463059926782,0.001872174345050925,-0.0014214873063599072,-0.004442839909110564,-0.04695618123385924,-0.04711194803492924
0.1570714128524779,0.0018373606451894352,-0.001395498144608716,-0.004359512450115334,-0.04608124276780201,-0.04623680616624
0.15415103554435836,0.0018031345187104453,-0.001369928580309039,-0.004277622770384679,-0.045221926145293904,-0.04537720877915882
0.15128258277600407,0.001769583123945629,-0.0013447949637893388,-0.004197135060295755,-0.04437796537019965,-0.044532874783763415
0.1484651248920415,0.0017366227402599297,-0.001320053120387994,-0.0041180491483114425,-0.043549106020249674,-0.043703537478516685
0.14569774233906452,0.0017042285430247587,-0.0012957556788096342,-0.004040353789674702,-0.0427350682827108,-0.04288894673580341
0.14297952945375642,0.0016724205266880994,-0.0012718513506890538,-0.0039640336479268064,-0.04193557487620567,-0.042088828091252674
0.1403096306240663,0.0016411803561957941,-0.0012483546830924762,-0.003889075757231184,-0.04115038657218698,-0.04130293732897562
0.13768719364545526,0.0016105051032777942,-0.0012252408109632111,-0.003815475396407928,-0.04037925864540053,-0.04053099020894836
0.13511134410001863,0.001580358323607185,-0.001202517310879521,-0.0037432173149635956,-0.03962189118390302,-0.03977276962053325
0.13258129863227078,0.0015507328150419807,-0.0011801688356525742,-0.003672283985843073,-0.03887808673217901,-0.03902803321000727
0.13009621208789818,0.001521647632742093,-0.0011581912282645163,-0.0036026516853589208,-0.03814757610124146,-0.0382965454090389
0.12765529616201218,0.0014930893572860126,-0.001136591006277519,-0.0035343096886083698,-0.037430134784883655,-0.03757805017059525
0.12525776242267445,0.0014650558046736266,-0.0011153561025299596,-0.0034672292759697085,-0.03672551826969978,-0.036872339924345736
0.12290283059681135,0.0014375323263155061,-0.0010944713941242934,-0.003401394034309573,-0.03603349091453392,-0.03617917653805731
0.12058978670096548,0.0014105003257228125,-0.001073940667026861,-0.003336784385321214,-0.03535383084974242,-0.03549833792459638
0.11831781326044678,0.0013839690620835743,-0.0010537599552469302,-0.0032733714556494467,-0.03468629402365665,-0.03482961224135058
0.11608621946283335,0.0013578995096501956,-0.0010339297330695888,-0.0032111449936662972,-0.034030658043446564,-0.034172766978931846
0.11389427607119557,0.0013322728956670453,-0.001014409656730237,-0.003150079402901242,-0.033386742188501226,-0.033527598826229146
0.11174127820496427,0.0013070865559887761,-0.0009952236560338817,-0.0030901477616764837,-0.03275430324512146,-0.03289391516594427
0.1096265827578736,0.0012824108030972956,-0.0009763407824281049,-0.003031313657101471,-0.03213315823874454,-0.03227149484266956
0.10754947289853349,0.0012581311446392713,-0.0009577864143444309,-0.002973581402086774,-0.03152309953440817,-0.031660129008070206
0.10550926443308274,0.0012343050641531665,-0.0009395368753173838,-0.0029169068950988925,-0.030923907147365037,-0.03105964190648803
0.10350534179393052,0.0012108865779200404,-0.0009215900654061655,-0.0028612737929194186,-0.030335427812778967,-0.0304698427254877
0.10153702552815572,0.0011878857980797076,-0.0009039715451942756,-0.0028066651287839365,-0.029757423756623252,-0.029890527759066646
0.09960367616814009,0.001165292758576593,-0.0008866218270605642,-0.002753062046102162,-0.02918971149953862,-0.02932150500982024
0.09770467255509971,0.0011430870934597869,-0.0008695941294954024,-0.0027004490466113265,-0.028632116583127944,-0.028762583291563806
0.09583942319568772,0.0011212868452371468,-0.0008528374713414991,-0.0026487975726271753,-0.028084457229178288,-0.02821359317477724
0.094007322908179,0.0010998852001283144,-0.0008363739194566195,-0.0025980795843370662,-0.027546549193052265,-0.027674377243632198
0.09220778799744746,0.0010788552511176268,-0.0008201799649984464,-0.002548279276489991,-0.027018227317973056,-0.027144765314613413
0.09044023017963261,0.0010582024601423323,-0.00080425274278791,-0.0024993935914486066,-0.026499307318717594,-0.026624548066338596
0.08870408758674442,0.0010378988942672748,-0.0007885857302738648,-0.002451401190384183,-0.02598963632143737,-0.026113570899164832
